x,y,cluster
0.4065236970670375,0.3777502404430277,0
0.3915701201840242,0.3883849135585842,0
0.4013255827814155,0.3814826527288298,0
0.3924733428128735,0.376966998087626,0
0.4052305937453903,0.3976638199969687,0
0.4029724462324011,0.3805685497391277,0
0.4239129360828823,0.3672117918427915,0
0.4039517133242601,0.3812948565164072,0
0.4102997767644593,0.3924943382256495,0
0.3925543722608122,0.388848043884572,0
0.3992843432294817,0.3885508160356446,0
0.4001013345741461,0.3925740453051641,0
0.3996041110061927,0.3855661211834395,0
0.3988438452503063,0.3681251486085048,0
0.4044969360793057,0.3901160569677963,0
0.3963475980099506,0.3868465012640502,0
0.4067981700904143,0.383846547347226,0
0.4081711205433565,0.3955379136091846,0
0.3974647435175591,0.392483951151282,0
0.4067100179225923,0.3787688318973048,0
0.4082180629163132,0.3713929670378375,0
0.4027170245041164,0.3909497897256361,0
0.3896731423581345,0.3712113589560569,0
0.3909651365196321,0.3904944277824769,0
0.4068173935919896,0.388458098326622,0
0.4057448265517598,0.3768720767609396,0
0.3861971115829531,0.4068888386000475,0
0.4001469929149918,0.3828718076662346,0
0.3992232918047225,0.3689751173653897,0
0.4019617567543943,0.3778099949286893,0
0.4012770090857138,0.3853446276283726,0
0.3950939708101401,0.3887455075424187,0
0.4045600922054919,0.3862004997420842,0
0.3963350300291064,0.3832031753894754,0
0.3955617106757636,0.3888036845269947,0
0.3966153636044434,0.376083361051321,0
0.3906462176645589,0.3581388735965675,0
0.4066265126828741,0.3784955189497248,0
0.403819463175132,0.3730911354148922,0
0.4028902023039752,0.3783674671085074,0
0.3933513144162329,0.3820260161362024,0
0.403071955399138,0.3850507821256111,0
0.397814764566246,0.3780119678099946,0
0.4077551930705669,0.3811670788388893,0
0.4015987157272507,0.3860854688305054,0
0.4024113580887151,0.4014128276218219,0
0.4072456387252934,0.3940552333557732,0
0.4054519245888115,0.3868075316124661,0
0.4044561161197907,0.3877538670857993,0
0.3990111003480605,0.3808119303546649,0
0.3976670843007785,0.3793745766323469,0
0.4059191393892012,0.3833850492938469,0
0.4178008112449352,0.3865414928402765,0
0.4094726157093484,0.3827052645618462,0
0.4051338032683301,0.3822312313531535,0
0.4019478812001905,0.378124201060412,0
0.3861690873409926,0.3882974462738461,0
0.393426443521113,0.3960323949606858,0
0.3987349172122446,0.3954632201041199,0
0.3961313899592439,0.3815237643201797,0
0.3943448089803669,0.3924814009454394,0
0.3963625242094295,0.3872110340414437,0
0.4068969019202806,0.3855096724599249,0
0.3916640237611528,0.3752412258005753,0
0.3896791634528734,0.3816918516553558,0
0.3925984443301476,0.385837512066994,0
0.4034768456769192,0.3831210109983602,0
0.402377793590851,0.3765664238780434,0
0.3734332026459885,0.3977276739332517,0
0.3953354501661928,0.3914254934027134,0
0.412620852639934,0.3980391932974443,0
0.4135766880768375,0.3763150489925866,0
0.4030764454752817,0.3907782259743211,0
0.4033088347988465,0.3790956690262296,0
0.3947870825527958,0.3732521643459198,0
0.3972003525863668,0.3701053763270827,0
0.3944137148692301,0.399247807005714,0
0.403970968550587,0.3809900641644354,0
0.4040487302637362,0.3559497342200875,0
0.4005713068742945,0.384435923006793,0
0.4226008994866637,0.3748000057975038,0
0.4051759826714735,0.3823975593558837,0
0.3915936907290379,0.3868389480519891,0
0.398532066951668,0.3826607566313741,0
0.4059344241045285,0.3846673840348023,0
0.4076945317866773,0.3804387260458811,0
0.4013740125077527,0.3827160416628659,0
0.3971541397238666,0.3717706817441038,0
0.4045027278474945,0.3918622488943369,0
0.4070097871136045,0.3767458839486433,0
0.3999673403972703,0.3938835419756724,0
0.4024483933605918,0.3836657645000776,0
0.3908794907260521,0.3729533761543459,0
0.4060040253474788,0.3780375351722623,0
0.4012154737317832,0.3778951384076559,0
0.4036874583365252,0.3917438978247035,0
0.4020276207891498,0.3862231199427974,0
0.402978920422711,0.3760487871283728,0
0.4106372214780496,0.3756365592274212,0
0.3960593377943965,0.3799176844850475,0
0.3988141482333325,0.383367086060416,0
0.4067418753720419,0.373608301885985,0
0.3995976579745892,0.3775848437228657,0
0.4032812919399842,0.3991097427533535,0
0.4044250382574341,0.3731905023542577,0
0.399240615470984,0.3841658498432751,0
0.4077109754812949,0.3922830516040144,0
0.3971954206844679,0.381617155633577,0
0.4057639248519403,0.3786544534895103,0
0.399051715421896,0.387684907968386,0
0.4061071201381603,0.3793482899556039,0
0.3985710814585068,0.3836285464958539,0
0.4000032500511971,0.3823717340885424,0
0.4006184914247474,0.3769638925409954,0
0.4085675782076009,0.3723373668598198,0
0.4028674326412071,0.3786959038889957,0
0.4017791205294787,0.3703440275860882,0
0.3842856827198597,0.3770812277839803,0
0.3997510292220511,0.3779974474880691,0
0.3972213385324058,0.3793872772021561,0
0.3927071914722447,0.3979793694766786,0
0.4002607517526979,0.3658613587023961,0
0.3984377166056747,0.3841382585414484,0
0.4007909376269079,0.3816700381436452,0
0.4007753386609216,0.3853404712439867,0
0.4076615602782348,0.3637546416415014,0
0.4003592414918283,0.3782502980432107,0
0.4010790423587303,0.3823165676127876,0
0.4129802587109241,0.3891216006263596,0
0.4008454953450238,0.3810780043595001,0
0.410779509577069,0.3772283768924057,0
0.4043944955391653,0.3838172852629058,0
0.4119802712676517,0.375289295240435,0
0.396213892398334,0.4003450606695499,0
0.3977051101821071,0.3822010907144459,0
0.4068893040115738,0.3863509581762323,0
0.3837119213396148,0.4045189525263851,0
0.4069803973209113,0.3825812952309,0
0.3882605348139568,0.4059787230677417,0
0.3859341121289862,0.3814322016080137,0
0.4061467802442126,0.3881671108625392,0
0.3996150798563139,0.3875079715679163,0
0.3977413460305525,0.3784776102370525,0
0.3985203698910954,0.3672729641032001,0
0.4002816044526839,0.3838536119924536,0
0.4065470040071531,0.3853421397845401,0
0.403835017326394,0.3929809317805806,0
0.4084830021350802,0.3952189438178303,0
0.4099435968518711,0.3821114418453276,0
0.408397324271869,0.3880867343517952,0
0.4018227986971358,0.381372982070987,0
0.3917329902845139,0.3841099215050714,0
0.4020288205637418,0.3816133337833251,0
0.4067782789596639,0.3837803217522829,0
0.3956844786103645,0.3973838497934175,0
0.4036611951489497,0.3815446927026177,0
0.3949784932212328,0.349115877204601,0
0.40862046350483,0.3996114423390402,0
0.4063564466021047,0.3785991424685958,0
0.3945214657779516,0.3802404707522472,0
0.3986356844004223,0.3780880730477671,0
0.3970767788970014,0.4018775464045289,0
0.3911917165259705,0.3856241165276445,0
0.3962687121683727,0.3743421405173206,0
0.3971368818134848,0.3845259815388894,0
0.4106407508038587,0.3767098764621731,0
0.3966145109063317,0.3680745162358619,0
0.4079339067273549,0.2655760514069862,1
0.3928126341928957,0.2489286423057155,1
0.4198334092498857,0.2651254258818454,1
0.4011032074089752,0.2620375172089537,1
0.419553595046285,0.2409021437900778,1
0.3883377766866785,0.2506313668277784,1
0.4088720656834531,0.2466663026993535,1
0.4188754858128639,0.2537902447934851,1
0.4064156106434258,0.2510184913612795,1
0.3888260412405572,0.2664275380924603,1
0.3960864377489394,0.2318075417448737,1
0.4147471564067876,0.2544786476161709,1
0.3888995842029062,0.2446920506711083,1
0.3957004099884967,0.2697409420206477,1
0.417630997678768,0.2630156560799117,1
0.4180793343064156,0.2439656298530484,1
0.4091180981349001,0.2541108494058423,1
0.392817787331634,0.254727082744948,1
0.3928559195795583,0.2478210455690081,1
0.3823330491932827,0.2418339356241708,1
0.3997043569833773,0.2544101074082088,1
0.3961289532102418,0.2599331698440736,1
0.3942166127960295,0.2481694555585576,1
0.4022977219672997,0.2493142722910975,1
0.4003353491925598,0.2497788715867042,1
0.3842873704493488,0.259087143962755,1
0.4112185257622543,0.2530444776346313,1
0.3721598104756752,0.259307977480367,1
0.4076500108653521,0.2414995435951917,1
0.411951055710789,0.2462426324676547,1
0.3933418240651176,0.2382287536741254,1
0.4114315511973198,0.2380824323170959,1
0.3949584397462808,0.2568461772774651,1
0.3947314719192865,0.2435365594089978,1
0.3950002766939711,0.2438538489971012,1
0.418251256347595,0.2685785096034896,1
0.3999856552887763,0.2694364131002211,1
0.4000362682920395,0.2425429472242859,1
0.3822134071840737,0.2446084488409541,1
0.4032836191327763,0.2531256894028829,1
0.4159811791516755,0.2503879122427567,1
0.4090618783981417,0.2646098987022454,1
0.3938734839424838,0.2472672160740622,1
0.4174004302144455,0.2499969543461182,1
0.4149619935142568,0.254694096980837,1
0.3981293302762392,0.2556323312994391,1
0.385726404180308,0.2406740044913827,1
0.3957148994324558,0.2486750350758269,1
0.4086431636165415,0.2521067482063828,1
0.4180117692535224,0.2504413837480095,1
0.4069562278681838,0.2405275883868364,1
0.4259745776588172,0.235331769603366,1
0.3891814723243637,0.2444406625066242,1
0.4282289336266289,0.2664526139711285,1
0.4086573771617554,0.2418096838996923,1
0.3911272588368857,0.2613722318727286,1
0.4015472831429048,0.2571945548199542,1
0.4036843853359305,0.2515159596951274,1
0.4089762408837928,0.2387068374052256,1
0.4025188131134226,0.2553793342526704,1
0.4000383369155676,0.2438415022522667,1
0.4031657677611877,0.2444013962183401,1
0.4196765178299027,0.2502174818349668,1
0.4051405813754799,0.2449497312235703,1
0.402706394762215,0.2335835606766878,1
0.3979864949944351,0.2459158204616814,1
0.3951547402924784,0.2446093347682398,1
0.3865220908734003,0.2537944204725572,1
0.402893718973266,0.2563206902609445,1
0.4145778214866881,0.2543744112490049,1
0.4042854833272886,0.2522766323927308,1
0.3945178702062497,0.2468253417786239,1
0.4031485290008017,0.2491902108032099,1
0.4071256659749638,0.2720111667558266,1
0.3986259510570808,0.2476947219354849,1
0.4021588671993389,0.2480009660592912,1
0.4138706524879714,0.2538538481754691,1
0.421916461187197,0.2635511183971342,1
0.3805319648486048,0.2522276186196435,1
0.4129563627258423,0.2500079900664119,1
0.4114793187330391,0.2472277510631583,1
0.4040361216999842,0.2516840015892626,1
0.4015038533556365,0.2524088142981239,1
0.4081132063215786,0.2692318287271782,1
0.3950704924000779,0.24236263800413,1
0.3933644317234446,0.2425768342093588,1
0.4145157486763135,0.2466538111931775,1
0.4168919172002416,0.2514726988489624,1
0.3759987300703504,0.2465400120992901,1
0.4000357937995032,0.258280748553389,1
0.4074102596388986,0.2371541053422832,1
0.4063714866968466,0.2527169920328512,1
0.4075528236242714,0.2529995636543897,1
0.4017413084943522,0.2487471883567888,1
0.4137386704747284,0.2592921819604054,1
0.3726863000173752,0.2435622999130595,1
0.3945057666420953,0.2674946394090458,1
0.3809916849247806,0.2395450691492195,1
0.4014065454212552,0.2498440994332738,1
0.4148184844303695,0.2561115763334234,1
0.402378543074974,0.2545630496381253,1
0.4239023380433573,0.2530457147521381,1
0.4019449915612581,0.2537722602893229,1
0.3940712804038835,0.2410337562055117,1
0.4027481567626831,0.2570986229283081,1
0.4135148553724323,0.2507042286927838,1
0.388541760599736,0.2492363750594687,1
0.3993754745495869,0.2498187381241041,1
0.3919021747419708,0.2590284348220494,1
0.3923386283873585,0.253290578185386,1
0.415014391273205,0.2614910633224652,1
0.3813140869775079,0.2305553841802454,1
0.3864549967717919,0.265586190823125,1
0.3910554176094897,0.2533589169359144,1
0.4257292182038756,0.2496334206018445,1
0.4082403019351039,0.2568572846313399,1
0.4157253974329145,0.2516173676992992,1
0.4017319702166146,0.2415236578761104,1
0.4287656301195587,0.2632836504418259,1
0.3989951347350284,0.2530535224736675,1
0.4011041378560308,0.2566350004032782,1
0.4025493024981043,0.2481614067487489,1
0.4110888077977873,0.2504818036761672,1
0.4214230378319626,0.2607819820441677,1
0.3749802979380006,0.2514928546021832,1
0.3798743970065183,0.2537290787414047,1
0.4190500617555616,0.2522430489541106,1
0.3956437289355219,0.2431584379534851,1
0.4095977618023143,0.2502720012008132,1
0.419148714330997,0.2580006919029885,1
0.4102617459625636,0.2535759932074779,1
0.3692491199912316,0.2387466480064695,1
0.3914204175692032,0.2434367659825735,1
0.3952813526915111,0.2536950697489511,1
0.4145653212217048,0.2560800799685272,1
0.4201824419218338,0.2589861218883222,1
0.4134437388388658,0.2508524774034191,1
0.3935581325051807,0.243680354495261,1
0.4192790523996167,0.2465747679640508,1
0.3980161593987475,0.2524735728389015,1
0.4224342931370774,0.2642707127689003,1
0.4001649877884682,0.2499622433988004,1
0.4287296934522976,0.2519847160415639,1
0.3853853909243651,0.2592401109295703,1
0.4000769008410135,0.2357294709387028,1
0.4044268248410436,0.2467511579313607,1
0.3993702083821046,0.2527912875781483,1
0.4058917914699964,0.2533367370630035,1
0.3942367322295016,0.2616883506992328,1
0.3921062144439506,0.2630205028404192,1
0.4083975283406971,0.252863659523023,1
0.4170693246608637,0.2469319181690825,1
0.4101436121388009,0.2519314265676116,1
0.4087116569954599,0.2677768041357506,1
0.4287680110124786,0.2556177961730564,1
0.4222402736104192,0.2652533271746402,1
0.4055185143662045,0.2522598213324556,1
0.3890464940135602,0.2525258533401283,1
0.4186069587212247,0.2572908100652028,1
0.4058449650063253,0.243114936190394,1
0.4140250628158872,0.2429356337226061,1
0.4115621800354286,0.2552902733378186,1
0.3935939956092802,0.2620348026925362,1
0.4143978548314493,0.2703619625630983,1
0.4095498774650662,0.2654382450725126,1
0.4063863886187779,0.2458828556103183,1
0.4021981992259026,0.2462850676592227,1
0.3897715034368174,0.2465164709222042,1
0.4089943354470971,0.2565084513418614,1
0.3932762812806779,0.261028502032936,1
0.4169665388181355,0.2720447130796829,1
0.404612330028643,0.2473535304171131,1
0.428353247149475,0.264306596812397,1
0.4028760448150217,0.227234878338486,1
0.3873560822812257,0.2592459223524683,1
0.4194787762594246,0.2588408501860534,1
0.4023298578253771,0.2631550953125081,1
0.4107601833718882,0.2540695082501428,1
0.4150512683732616,0.2676499755400195,1
0.3986109635845144,0.252163983782808,1
0.3968637159486888,0.247555185243458,1
0.387834805043515,0.2423756177930755,1
0.391471465263703,0.2413492915354765,1
0.3866706607077237,0.2516333105304291,1
0.4213291717014056,0.2685148124830968,1
0.4044169909293009,0.2550231533614253,1
0.4006277573017066,0.2467075026250223,1
0.4124441110993947,0.2630648921981786,1
0.4266698544364053,0.2620005190417703,1
0.416039561383712,0.2547536331211367,1
0.3915885319107537,0.2641789986563466,1
0.4206534790279478,0.2578094531026661,1
0.4171946696266882,0.2548353631412161,1
0.3972070610714854,0.260786556196797,1
0.4098189854659203,0.2519938371905097,1
0.4089165889300297,0.2623413766980556,1
0.4296978427399504,0.2667982313108146,1
0.4117789864561821,0.2576778028817192,1
0.3873615934175325,0.243920752768468,1
0.3923718473078893,0.2406388535415498,1
0.4011245050070308,0.2595181260275481,1
0.4052717579248385,0.2544602538190507,1
0.4002641066094138,0.2589251664457647,1
0.3962843784180695,0.2463373469652013,1
0.3760039489445346,0.2526877040135557,1
0.4036670367493212,0.2447168774388262,1
0.4158454787132781,0.2503021117529068,1
0.4145805061154107,0.2584773827108612,1
0.4130682482025015,0.2582893828610741,1
0.4222920813490378,0.2428555085348591,1
0.4395268483645553,0.2590749123401994,1
0.4132613349631138,0.2566800870223895,1
0.4267980823499425,0.2715701833465554,1
0.4065687398261383,0.2739974304289632,1
0.3957782146516171,0.2412212435226327,1
0.4174082731465245,0.2529800883410052,1
0.3891471986183496,0.2573847743112372,1
0.3966285231731901,0.2462935966296139,1
0.4010195262025883,0.2539707637201489,1
0.3840361216628702,0.260511506482706,1
0.4023667340867713,0.2622361320100782,1
0.3994641838674744,0.2500580519877264,1
0.4067832334616396,0.2646529891784486,1
0.4320550563533893,0.2612478172892748,1
0.3982457768060615,0.2423254475307361,1
0.4027266437527085,0.2535019047888507,1
0.4282521357730297,0.2673939769611005,1
0.4198074680828045,0.2430079059253698,1
0.4144674504740849,0.2559695550091931,1
0.393551497194817,0.2646262815073982,1
0.39697794082292,0.2424398997731046,1
0.3997964988909769,0.2561848918497346,1
0.5136724466145258,0.2886607505609613,2
0.3801776503419923,0.2918286630939627,2
0.3242301760773927,0.422137413556816,2
0.5240791968566895,0.2808668852975504,2
0.4055600405005711,0.2781373109792025,2
0.3744637018417706,0.3955954865051982,2
0.4683734099943874,0.2654508055613024,2
0.5292185644412493,0.3057949278571161,2
0.5177380007504622,0.3063189709479521,2
0.5453004034575337,0.2545002361672976,2
0.4069449814745332,0.3580223224364267,2
0.4778063676426574,0.303823070837574,2
0.5189041005833214,0.1981430264853239,2
0.5009268763925244,0.2657988911464013,2
0.5284709611643575,0.2133734212290399,2
0.4791795923010956,0.274453314143136,2
0.4973828492829732,0.2829595518010219,2
0.4885197197974669,0.3090261966723821,2
0.4732155123093662,0.3010229423123841,2
0.4684946069966204,0.2227788803608127,2
0.3863101442051284,0.2920801728077596,2
0.414364017414648,0.3689631137237716,2
0.4171349482680609,0.3073688926480771,2
0.541305139482736,0.182162191394273,2
0.475888123582759,0.3023862746131426,2
0.4555938135779719,0.2943740084695824,2
0.5383630775831567,0.2557989302669914,2
0.488639871645925,0.2673422048119888,2
0.4949763044586104,0.2500969712018684,2
0.5097326254652259,0.2345635532643138,2
0.4887940228073122,0.3054369589442448,2
0.4708351457618745,0.2607458732396464,2
0.447725532735478,0.3166081994055592,2
0.4712367168127912,0.3008821175120368,2
0.4558867459450108,0.3225311464457033,2
0.5256105913289356,0.1982536021540943,2
0.4539299464811972,0.3214112030162948,2
0.5004868541111803,0.339448715067339,2
0.4565337074755629,0.2762186744704358,2
0.5307504202602328,0.2774940834492647,2
0.4990113660134475,0.2426115200835329,2
0.5817812028461156,0.2128344015996381,2
0.5604070699931749,0.2205171048568344,2
0.4342814555938523,0.3113816053665574,2
0.5517846862142706,0.26472199741418,2
0.5271370283483555,0.2661808008064296,2
0.429848025259349,0.3100288774908264,2
0.4952940338372978,0.2512200836177083,2
0.4629872247422168,0.225315508156363,2
0.5354781482405969,0.240855194709227,2
0.5649817251811393,0.2503904058459972,2
0.5027145973835083,0.2604309867882279,2
0.4971404173317262,0.2240987576742114,2
0.4391834056685206,0.2786704172408472,2
0.4482129310538183,0.3528654495366881,2
0.5039225264291387,0.2880517829522401,2
0.54663685965361,0.2631413157333294,2
0.5602563901115731,0.174107602336868,2
0.5157089480533874,0.2689939637990045,2
0.4549655194605226,0.2580158594415003,2
0.4736262524252449,0.3025507316165041,2
0.4492430081979535,0.23113141188479,2
0.4991774574844784,0.2760889749712358,2
0.4920178878051101,0.2704618959424647,2
0.414859209041454,0.3081730283121692,2
0.4870146940185919,0.2645590888030424,2
0.4932452516596801,0.2917892133162882,2
0.4595322879118952,0.2607245668920833,2
0.5450692660956208,0.2819425710358281,2
0.4574722763755081,0.2991764875362497,2
0.5110692398049759,0.2818460244079266,2
0.4733865355445115,0.2914783604397679,2
0.4297127567830326,0.3218004839615356,2
0.3996063797152758,0.3193810264047853,2
0.5067948395660963,0.1885793229267415,2
0.4210062036493888,0.2247166738838392,2
0.4907687667229697,0.2754345286539056,2
0.4987510444540792,0.2730606855845706,2
0.4954732644197477,0.3027410977598824,2
0.5195938098491505,0.3032700416856375,2
0.4600568135246465,0.3216958112669202,2
0.5125312147836923,0.2738124159122256,2
0.5354578134045053,0.2253649006815076,2
0.5031041424156575,0.3076140130043464,2
0.5214101207353329,0.2752421251961896,2
0.599092894386043,0.1761954575197537,2
0.501038017150347,0.3150467176971246,2
0.4734647692478282,0.2821153937017163,2
0.4038350201151532,0.3219199922411977,2
0.5006316768541573,0.2318334765336612,2
0.4499098061638675,0.3003783508354269,2
0.3983939850330547,0.3063783609684,2
0.5500635148313239,0.2234157323765495,2
0.6002250588933091,0.2090418325725004,2
0.411852451733973,0.3031768094953184,2
0.4846016138898752,0.2977451029699446,2
0.5818841706016799,0.2920475958549475,2
0.4374736104771598,0.297409546560736,2
0.5461701603615021,0.2403090157724177,2
0.4588821369773674,0.2802290952936336,2
0.4982659439267656,0.2213085518242477,2
0.4732648973672799,0.2703110320085792,2
0.4621227254963903,0.2973525098451529,2
0.3700153873619918,0.2993343302917622,2
0.4266736407519516,0.387369821737754,2
0.4668168334974021,0.2602120027579324,2
0.4765171721203809,0.2677641853981908,2
0.441969232459353,0.3005561715269846,2
0.4960594371963832,0.2814399390059589,2
0.5429174721435033,0.2272329287703828,2
0.469048843781895,0.2708576471528694,2
0.5046428661720894,0.2776692687775384,2
0.5064769188375811,0.3259300426854657,2
0.4981869152830245,0.2682322722322848,2
0.5101462922231854,0.3321982479315638,2
0.4900577254395254,0.2664141417527899,2
0.5055713236152534,0.2839654088197899,2
0.531679588075237,0.2145132548067531,2
0.5135658307221,0.2599987362139459,2
0.5155471303206315,0.2957932585759485,2
0.43902356835905,0.3021355762213654,2
0.3194559456884581,0.3936795892625651,2
0.4460752597118079,0.2777679394410441,2
0.5164528337646324,0.2763928865935563,2
0.4392605118809524,0.2787653415570489,2
0.4244927650743988,0.3056646360057097,2
0.4421381361268243,0.3258769980520307,2
0.4571528027738833,0.2843461009772736,2
0.5647659128775003,0.2050865580962057,2
0.474061389419189,0.2935018228685422,2
0.4543532552466972,0.2698975346663588,2
0.5295261219889641,0.2429646344461843,2
0.4573563538414535,0.3222869835811605,2
0.4968115764968661,0.2631169705366204,2
0.5067799364664497,0.2043838704129285,2
0.4688334448044973,0.3381114620718873,2
0.4265289905594038,0.3200608602308717,2
0.4700849307740459,0.2417390409232855,2
0.3981750598046696,0.3121990175473824,2
0.5695056827801119,0.1982442786236468,2
0.5278811024431047,0.3014760745526585,2
0.4712537761094107,0.2656728083583539,2
0.3473153943184384,0.4351597972044883,2
0.5079475690392271,0.2998278132935426,2
0.577083350079802,0.2092652308212352,2
0.5091834966457405,0.240441070158388,2
0.5548051295287246,0.2103883370925132,2
0.465177871974645,0.2832136510466483,2
0.5332246947419699,0.2331569560731951,2
0.4333183139705296,0.2687840795015465,2
0.4338743008864274,0.2914901964274269,2
0.4636681401074268,0.2642486331208256,2
0.4564941088891663,0.3697423520580272,2
0.4860703343640769,0.262051171375547,2
0.532102589120907,0.260780912938406,2
0.417856740203319,0.3059154343149382,2
0.4726142196395772,0.2590692056324492,2
0.440604357842133,0.2888160446039722,2
0.479586298206156,0.3150504351766609,2
0.5276095196269655,0.1553306480155408,2
0.4716625606290917,0.2568209685576599,2
0.423612022599642,0.2835575780243317,2
0.3644771657459186,0.329282811385978,2
0.5702339191549248,0.2703664384315073,2
0.4830444104482921,0.3090380143525196,2
0.4562151661699915,0.2490920940938271,2
0.4263601284003936,0.3615865446671344,2
0.5341394705806797,0.2372102735723359,2
0.4157491028654506,0.3563603532391611,2
0.4753280643169552,0.2776304689844483,2
0.4266500201957821,0.2872258978709949,2
0.4705773667657918,0.2887951285621869,2
0.5479311426131673,0.2199160227843306,2
0.5005704760559506,0.242948829405492,2
0.5138651177537704,0.2742405610069346,2
0.4716093684382897,0.3126745076295538,2
0.4550839305302291,0.2476534523217235,2
0.4681750926580219,0.3049939197562508,2
0.473658468176361,0.2870061633954806,2
0.4839637586442259,0.2788419859375804,2
0.5109186076833512,0.3145931948353108,2
0.5858377227697962,0.220607552452376,2
0.432362982617434,0.2979417850777168,2
0.4259007426088491,0.2907033154618291,2
0.4313900175008145,0.2916248796177706,2
0.6227239201412924,0.2271169933348273,2
0.440408758439027,0.324933085397298,2
0.4904214510504706,0.3151591240283609,2
0.5129565216135324,0.2584284491575657,2
0.5308107330954699,0.2991412366288838,2
0.3517388094075817,0.2735200144150325,2
0.4282601897120639,0.3111821662386711,2
0.3993400481933035,0.3664304868376526,2
0.4453799392984419,0.2649963500925538,2
0.4735015394803677,0.32725240791311,2
0.5549691165740859,0.2850948710781272,2
0.4975744240196994,0.2869299774965007,2
0.4597270223310102,0.2979107893451137,2
0.4607034921670512,0.3325846885328755,2
0.5021588445402385,0.2646293171422665,2
0.4177738737855477,0.3308901572409883,2
0.4979506806373007,0.2836187375964901,2
0.3607455048644471,0.2944253465325752,2
0.5091647179318323,0.3066465051161444,2
0.5231643278293258,0.2492668639038053,2
0.5119706291215365,0.2003254966869574,2
0.4560753362314056,0.2943380088987981,2
0.3895825630653184,0.3654101213483718,2
0.5529020732608116,0.250851473244467,2
0.5649921816504159,0.2105346358627913,2
0.4850723341779981,0.2732797642072867,2
0.4688658960936244,0.3455258094632243,2
0.4207737322860736,0.2942394929012819,2
0.4174371124189104,0.3651236561062426,2
0.4562748013002259,0.3248520146007284,2
0.5503002836082542,0.2442466094728226,2
0.4865930473685944,0.3233426985857198,2
0.6027924478170965,0.1966050456267327,2
0.4402868847801597,0.3410800190929737,2
0.4999624331445202,0.3200709339931611,2
0.3615714984153426,0.3055265580677866,2
0.4800436667222833,0.2815641204656768,2
0.53005430903448,0.241189284367812,2
0.3996950353182102,0.329014033374324,2
0.4701730361599575,0.3105927536213773,2
0.4844365346660643,0.2761960821519806,2
0.4884671975648175,0.2959546473497739,2
0.5115601741956736,0.2491738479896223,2
0.467219538636084,0.3061600752308941,2
0.547387543930996,0.2729260779427332,2
0.5000930824847877,0.267602725141545,2
0.474798226211987,0.3097718677868076,2
0.4380747210664524,0.3172114743411834,2
0.4406081830741942,0.3340547905585823,2
0.4564918412265875,0.3192890066024774,2
0.4865674922750879,0.2829021534068753,2
0.3827183302370338,0.3830779253836903,2
0.4882340915577223,0.285727406898987,2
0.414256250891558,0.3290846135502012,2
0.5089084351949535,0.2975611713023753,2
0.4420219429698668,0.304519553056419,2
0.4799883685099906,0.1735106398762792,2
0.4227673160368997,0.3413872571363918,2
0.4395674947034098,0.3175118051299114,2
0.4690638256246138,0.2686873422820394,2
0.4032064145996344,0.3680260050252636,2
0.4504919196884638,0.3151324539592074,2
0.4620899436579095,0.3022037933441968,2
0.533562465322653,0.231078590490265,2
0.5935480051588338,0.1711508050185688,2
0.4333793156530081,0.2447721043429868,2
0.3986601365216785,0.2247419631931845,2
0.4615270596893504,0.2724788280665315,2
0.5072970552568552,0.2304235842939842,2
0.5610254650640494,0.2442551930027731,2
0.4281782343727338,0.3274101843039178,2
0.4398526201135235,0.3268926208262799,2
0.5529759942169046,0.2467072581867975,2
0.4449566340443189,0.2359676308833481,2
0.5347460480107228,0.2488034987798586,2
0.4805880316555173,0.2798384590237542,2
0.499689906799222,0.2817985003810687,2
0.525664598689371,0.3182300266067173,2
0.4984873505400423,0.3250477819265378,2
0.4530265920775069,0.2393604816626852,2
0.4889813586040388,0.271628759718026,2
0.4562217617869312,0.2522630814881633,2
0.4747224913613271,0.3327745276025866,2
0.6225943083205897,0.3050778676073076,3
0.3772113496152194,0.4780624639482664,3
0.5368767817262635,0.4451534606524904,3
0.4270185587333542,0.4773910328080295,3
0.3111072352083036,0.6424513648593815,3
0.7920141241470103,0.1264563834624401,3
0.3896877026623717,0.5220575888268724,3
0.5326871956553149,0.4128424601459387,3
0.3282963692332701,0.5529011478614173,3
0.5956744898388648,0.2880842331542982,3
0.431818701139083,0.3321521089150157,3
0.3826702419477971,0.5914678570925638,3
0.517619628745043,0.3804305132374829,3
0.4519833878913759,0.4057858665600912,3
0.4379635468297304,0.5998780920536362,3
0.2846007895923116,0.7865322024558188,3
0.591984685938194,0.3210569219305672,3
0.6064070692288681,0.3023284081672008,3
0.5523579169456297,0.3937451201660149,3
0.435998090403647,0.4396832146796615,3
0.5128909741535177,0.4080993579400847,3
0.5140776400455428,0.4137467709658574,3
0.4777451037623286,0.4225178643635361,3
0.5832209391662392,0.3963426217408869,3
0.5839309295230265,0.3417876746507061,3
0.6364468140344341,0.2129118473383704,3
0.5706190136631157,0.3437786119309767,3
0.486471962494083,0.4709663714486166,3
0.6028252822095619,0.2898203229475891,3
0.4861066376347545,0.4051263792763245,3
0.5293498827650025,0.3947966888980038,3
0.6087304814071178,0.2074999339684485,3
0.4848430815259382,0.4323856249454397,3
0.4013210797912744,0.5335328696089217,3
0.4402217691371384,0.587372689424289,3
0.5475684530179138,0.3556728572497462,3
0.4001881929381414,0.5198222724946869,3
0.3701920219214193,0.5869406686840222,3
0.4936713274494038,0.4257129497204227,3
0.5970155191673974,0.3154450614598994,3
0.5618981941872703,0.356816337428052,3
0.5007150520791732,0.4138785007962187,3
0.2874015647060632,0.6151123372533474,3
0.4536560453817206,0.3902260688172469,3
0.5473794556249537,0.4482013934906854,3
0.4258238551074135,0.5180551304465592,3
0.3646295328564317,0.5405791446955599,3
1.0,0.0353607859521372,3
0.4525931567931115,0.4391571385211201,3
0.5107592933529373,0.4093013622039277,3
0.5962041091984627,0.3065157632220903,3
0.5267621036216463,0.4322114199169554,3
0.5305249264485901,0.3754584697995587,3
0.5266436669501583,0.3841901218955647,3
0.2642565107050535,0.8890466867268612,3
0.3721659799768276,0.5617814726214417,3
0.4886594942395441,0.3964109462910806,3
0.450367841290461,0.4653057219525082,3
0.5857791514528081,0.3142782846863104,3
0.53542830547153,0.3740529105111447,3
0.3139398964657734,0.9254615811700384,3
0.2915332925473068,0.475056276259425,3
0.5429159834735496,0.3924171464877698,3
0.154733187786509,0.6695353362152257,3
0.5958540854234263,0.3166291288127296,3
0.5119375759474926,0.388137654264965,3
0.309315731471205,0.539675013053335,3
0.5053908166879844,0.3278541810994551,3
0.7432244706950624,0.1545064276329707,3
0.5246782171984802,0.3681921546697964,3
0.5161772664506871,0.3558016530087643,3
0.4297566268136393,0.5307131636513452,3
0.4498299392211984,0.2911004360065336,3
0.5344953016354119,0.3998089699838477,3
0.4224171409339523,0.5396470726942779,3
0.3048530758773099,0.5950971776869296,3
0.486686281377904,0.4744528899718503,3
0.6143293302778355,0.2996830859878495,3
0.42474991050423,0.5656325906244442,3
0.5381886496750151,0.4312028086408772,3
0.544219279174481,0.4096381293840122,3
0.3191180944791109,0.6505761650511714,3
0.6625527126158011,0.2841928488736809,3
0.4679645451172377,0.4705368205475739,3
0.5586731673907485,0.4378009616715251,3
0.4958465847592524,0.4230981652418122,3
0.6762885491247248,0.3859819914316499,3
0.4500078833001101,0.631167330614804,3
0.4269570808437193,0.4815279484019903,3
0.560823004813764,0.4461947624742914,3
0.3760012554233965,0.4822607483618358,3
0.4834802301787706,0.4301158185493368,3
0.4941585578536496,0.3822201029676555,3
0.4980275398989289,0.3682462349087691,3
0.6388795889466465,0.3766438214713271,3
0.4619439318893517,0.5097506057976864,3
0.5384134338988659,0.3997443490724751,3
0.4890039578175214,0.437237354021216,3
0.6223127911798745,0.3382273512239768,3
0.5008916962906884,0.4033076065013721,3
0.3856371283280947,0.5174225676546035,3
0.335752091888905,0.5693364702982778,3
0.5424305495019605,0.3429141706434653,3
0.5506507913577428,0.4012355107314071,3
0.4917770293323595,0.4621988212384145,3
0.4471292248256163,0.6149408433743504,3
0.3963453149812269,0.5446253458838404,3
0.4076802624258549,0.6227295712791021,3
0.5034704520326111,0.4555602706613079,3
0.4654826544271102,0.5121980105514524,3
0.3275698085860539,0.526052118697328,3
0.5385149558860971,0.3389532672578777,3
0.592456347571383,0.3254616071673552,3
0.529423020563659,0.4521479190343637,3
0.5149468245427982,0.3820425274559385,3
0.5331069544297313,0.4311140944392248,3
0.7506482303934183,0.3092075885940867,3
0.5455100424988808,0.3564874464070041,3
0.5984298165477405,0.3858864905735716,3
0.4750629919303444,0.4417224568250827,3
0.2914428357605495,0.6339851216554158,3
0.5684610480948128,0.2656831114569674,3
0.5434730840510921,0.338308299253125,3
0.6777681732606227,0.1438899938560152,3
0.8883957083660642,0.0,3
0.4361458648191147,0.4862744117731308,3
0.4030934038308544,0.5084908954327516,3
0.6831294243638355,0.2540858477651203,3
0.205914982852214,0.6730018627649323,3
0.6062205546519996,0.3655624827982311,3
0.4071007329806119,0.4657962293769434,3
0.1516066187550744,0.7021354493811152,3
0.5203571390853928,0.415055387274608,3
0.5123864848773324,0.4085721407164638,3
0.5997229210740204,0.3790660105853054,3
0.573337199327957,0.314076575181888,3
0.7348704747911106,0.1351753140505349,3
0.5158565660397755,0.4007964259430838,3
0.4842838893689128,0.4026166758049225,3
0.4432551425252866,0.4340612627799631,3
0.1961844846752349,0.7195025028200286,3
0.4554685887492745,0.4647427394604964,3
0.7377896989516686,0.1310113585120757,3
0.3340715881825258,0.4456575918898877,3
0.0,1.0,3
0.508754596237194,0.4045807286067234,3
0.6150122843942176,0.2896851344823685,3
0.5043828579055027,0.4291240005965878,3
0.168543874535102,0.8968695507429845,3
0.6259885548821247,0.4086678894023605,3
0.5980152991889015,0.2631843430057815,3
0.2955458808388463,0.5124312645167732,3
0.5065465955449511,0.4088077511066188,3
0.4815915501265974,0.3359194370857814,3
0.4750763467546708,0.5021986078714242,3
0.773598158726433,0.1465379410069675,3
0.454150575799073,0.4358899797208964,3
0.5906988661233807,0.3260840935178817,3
0.5399515280259826,0.3327414590347151,3
0.6785002570848354,0.2616219581411096,3
0.5471337738240334,0.3847271677203885,3
0.6649458889230926,0.2850853129585147,3
0.5426538519554666,0.4072384012114549,3
0.4270936292908616,0.3907923491555466,3
0.5194382221394972,0.3958480793061877,3
0.5225285627774703,0.4139676094530008,3
0.6764030861603005,0.2943496728526682,3
0.7546550089762418,0.1164611513040719,3
0.5123690187678788,0.4679165052367763,3
0.4110005644314582,0.4941694484380371,3
0.503137549713887,0.40081299254583,3
0.5893112607682496,0.3315981007629685,3
0.4706347692395083,0.4558033777829496,3
0.6040267777408546,0.313584108614048,3
0.4452726728551835,0.4894529315075774,3
0.5340765635386975,0.4082340930983808,3
0.5033596284646837,0.4690472774737971,3
0.6532726515909244,0.3215071122973786,3
0.2912516679263137,0.6430191077740854,3
0.4284091478861788,0.555957155604079,3
0.5467577940798698,0.3517449691021135,3
0.6329441851344294,0.3043568305911913,3
0.5077043385213492,0.4194238444768434,3
0.5661150794883177,0.3771344677567717,3
0.4363518645629488,0.5053169862371698,3
0.4555533675027642,0.5018978686729452,3
0.5321445553634886,0.4024985189865271,3
0.7629305621300464,0.194711259968112,3
0.4883450508255245,0.4513729962405509,3
0.4808763928599345,0.4601062501152814,3
0.5412421434366756,0.2963431191593937,3
0.5967766269387635,0.3090516917462752,3
0.4617918716533672,0.3921220545696189,3
0.6133733163398162,0.3982693609567638,3
0.2721528938253451,0.6678407726336368,3
0.4820716391330385,0.4070244806254866,3
0.5331518431584432,0.3923632908225301,3
0.5860088366616808,0.3543602601972294,3
0.5731387003390938,0.332224043071242,3
0.3394030524054963,0.5508315880094345,3
0.4852193170462844,0.5017420790194175,3
0.4787209728855275,0.4184966916555658,3
0.390502498503748,0.5506204465144944,3
0.3810134350990419,0.5331469129998998,3
0.4556048879254168,0.4432707523820364,3
0.4122334962142926,0.4864583496633139,3
0.5368079558975287,0.376816375843781,3
0.3667451904092074,0.6680409825138129,3
0.5529582161007328,0.400737354696462,3
0.4518261968348422,0.4647210297959299,3
0.5066411387836346,0.4383357845010548,3
0.5561647399364058,0.3256838841528982,3
0.5577754065625324,0.4235189532254022,3
0.4455347270212634,0.4459363901037398,3
0.46389791107367,0.5255365497775141,3
0.5324775096068957,0.3549401795698001,3
0.6036738026047697,0.2832535348064666,3
0.3529375217639282,0.5701199883451101,3
0.3343517277890518,0.6124451473786234,3
0.4482030918100843,0.471250928775032,3
0.3945982040462486,0.5877326685168494,3
0.5141397101972625,0.4012180135567647,3
0.5921696730824043,0.3547212291676387,3
0.5611629920768822,0.380521866623155,3
0.4587169133986599,0.5209877160528131,3
0.5257657173310444,0.4035192991532422,3
0.4550129977544871,0.4683553978190236,3
0.5688982579051637,0.3381569826274891,3
0.3718892489206777,0.5836979761641738,3
0.4937438397930119,0.4388150268846923,3
0.6010141294377911,0.3427037585165538,3
0.4848405369926541,0.4554544270050096,3
0.3308246379122016,0.5946890885207614,3
0.5412076238575942,0.3752963631687193,3
0.4537473053281743,0.4478666858473172,3
0.3242712331876025,0.5932118667809818,3
0.4316954329969445,0.5886193766733607,3
0.4919481590522641,0.4194813628560931,3
0.5482780148563512,0.3958156524417802,3
0.5330964579643508,0.3070958003594776,3
0.6227116762226486,0.2971223596058827,3
0.4833271990985056,0.4669618284515851,3
0.6967546651298494,0.1655961759099764,3
0.5925033472744989,0.3117907627611231,3
0.4406243419529135,0.464859387485815,3
0.4986188794341891,0.4512064698660137,3
0.4595618144860021,0.4701960048216642,3
0.5358446034034318,0.3687442471471341,3
0.4255386497671717,0.5152998716268569,3
0.4142980422247115,0.5034735731611881,3
0.4711084866230595,0.449457279525902,3
0.4799976453708393,0.415341185570287,3
0.6280404242284103,0.2664146048971655,3
0.5464746473015644,0.3861695809033818,3
0.5991342204670631,0.3861207770732608,3
0.7138272749209144,0.211096390688638,3
0.4678579973429127,0.4865610636153582,3
0.5128106303290272,0.4032375427829376,3
0.3941271381625718,0.5456430699229843,3
0.3630687975393285,0.5221323182643899,3
0.6141465266986614,0.3448374071957671,3
0.5035155406236165,0.4441049077397837,3
0.5046424782279296,0.3871877492842775,3
0.3018249950161178,0.5695506718993222,3
0.5275001449019135,0.4362794887632828,3
0.3848866697624519,0.6067436054843729,3
0.8195458852861703,0.1351942549852677,3
0.4442619013304446,0.4190248410567286,3
0.8375282313098492,0.045138923506675,3
0.5082731376065471,0.3465625371333201,3
0.5220349328707733,0.2876039551788386,3
0.511080106392117,0.4248209148022269,3
0.4924263876064195,0.5293257813877702,3
0.5309194448029704,0.3759631972890564,3
0.4916516489890695,0.4360934055390615,3
0.6384065359633444,0.3369922673556622,3
0.5152950497836453,0.4152378190866349,3
0.532416766256978,0.4046892204042062,3
0.6899946931175966,0.2362578338442346,3
0.5405125020864816,0.4406957720471922,3
0.3845348048748287,0.5701184317414294,3
0.4574117467268213,0.3873047597699799,3
0.5866881203951821,0.2983476422468167,3
0.3638679129658985,0.4484246935826264,3
0.4957393635161721,0.4489226780126918,3
0.5828133103231846,0.2162748147911656,3
0.6098903645124953,0.3245148576321477,3
0.3784010887969743,0.5635296916815413,3
0.6609245287426638,0.2483216803162324,3
0.3988060944437801,0.5450197296376019,3
0.614448424807605,0.3320120876424606,3
0.4218996442641882,0.5040499428167391,3
0.4325267936540464,0.5501422537611717,3
0.7550909902002654,0.1624262772445875,3
0.5139920532989772,0.3889500715766727,3
0.1664880743893624,0.7434540586550786,3
0.5246671319137719,0.416867804390763,3
0.5878246570534235,0.2922909007183406,3
0.5486073081228745,0.3794742737520921,3
0.5307738683028673,0.4515558621940596,3
0.6371092450169633,0.3207113476941785,3
0.6192272057972424,0.1753373629463816,3
0.5205509671745281,0.4281054836868256,3
0.5457702589388609,0.3617957360142009,3
0.5709189643380252,0.3466996326785613,3
0.5043644189875672,0.3501044675327621,3
0.4642061269426119,0.5050922201060108,3
0.4724708272408611,0.3670556891974093,3
0.4932358163278952,0.3998088426791851,3
0.5115515049164989,0.5072557947559783,3
0.49360332984961,0.4259917836045563,3
0.616731445892683,0.34611739856974,3
0.6822462608736839,0.1844412122849378,3
0.5646269721062543,0.3361381178842917,3
0.5125605733901426,0.3841308131336969,3
0.6697211337176153,0.2266687042440039,3
0.6067235950279064,0.3220612098469835,3
0.3760003221563158,0.50548926517175,3
0.5727322359346647,0.3560457685702349,3
0.5327068756274019,0.3615117463802839,3
0.4356451396661228,0.4921525236648971,3
0.5479982082666847,0.4206009770073355,3
0.5966070149487014,0.2862683025641219,3
0.5292445551282019,0.3150803939966913,3
0.4644914867139682,0.4322727310785361,3
0.4473818677621834,0.48448560171955,3
0.4805693019401872,0.4293533400208543,3
0.4972246356433324,0.4287385853497983,3
0.3918860825739734,0.5159512165791248,3
0.5871316581749939,0.3253579499316187,3
0.7049094192479732,0.1788810531197039,3
0.6216111260156155,0.3089747484513069,3
0.5101814596147978,0.3818956367547158,3
